count,tension_left,ms_left,ms_left_model,ms_speed_left,ms_speed_left_model,pressure_left,g_pressure_1,tension_right,ms_right,ms_right_model,ms_speed_right,ms_speed_right_model,natural_length_right_model,deformation_right_model,natural_length_left_model,deformation_left_model,pressure_right,g_pressure_2,start of cycle,angle,m5_Ia_+,m5_Ia_model_+,m5_Ia_-,m5_Ia_model_-,m5_Ib_-,m5_Ib_+,m7_Ia_+,m7_Ia_model_+,m7_Ia_-,m7_Ia_model_-,m7_Ib_-,m7_Ib_+,4.83456,2.80899,170.09,178.51,10687,14700,337.983,
200,-1,-0.807249,154.04,0.0255217,-6.13666,0.270401,0.28,-4,-0.434902,141.124,-0.00954799,7.26744,141.298,-0.173773,153.849,0.191243,0.52919,0.52,0,42,0,0,0,0,0,0,0,0.286168,0,0.286168,0,0
201,-5,-0.80427,154.716,-0.730494,15.4764,0.271088,0.2804,-11,-0.43788,140.85,-0.0566241,-13.008,141.33,-0.480004,153.808,0.908426,0.528732,0.5196,0,42,0,0,0,0,0,0,0,0.286168,0,0.286168,0,0
202,-10,-0.801291,155.506,-1.0258,38.484,0.271469,0.2808,-7,-0.434902,141.047,-0.0808204,-23.6855,141.352,-0.304688,153.785,1.7215,0.528427,0.5192,0,42,0,0,0,0,0,0,0,0.286168,0,0.286168,0,0
203,-15,-0.816185,156.245,-0.911022,57.746,0.271545,0.2812,1,-0.431923,141.427,-0.0289148,-18.3401,141.384,0.0433106,153.78,2.46439,0.527969,0.5188,0,42,0,0,0,0,0,0,0,0.286168,0,0.286168,0,0
204,-17,-0.822143,156.487,-0.838297,66.9965,0.272156,0.2816,6,-0.431923,141.67,0.0604455,-3.11229,141.411,0.259208,153.743,2.74311,0.527588,0.5184,0,43,0,0,0,0,0,0,0,0.286168,0,0.286168,0,0
205,-14,-0.807249,156.022,-0.662153,57.8355,0.272766,0.282,15,-0.431923,142.087,0.101069,12.6448,141.443,0.644231,153.707,2.31552,0.52713,0.518,0,43,0,0,0,0,0,0,0,0.286168,0,0.286168,0,0
206,-8,-0.816185,155.089,-0.310396,27.5476,0.273071,0.2824,27,-0.43788,142.621,0.0504931,26.5785,141.47,1.15127,153.688,1.40075,0.526749,0.5176,0,43,0,0,0,0,0,0,0,0.286168,0,0.286168,0,0
207,-4,-0.819164,154.392,-0.121411,-12.7523,0.273529,0.2828,35,-0.428944,142.987,-0.00408987,37.6129,141.502,1.48546,153.661,0.731372,0.526291,0.5172,0,43,0,0,0,0,0,0,0,0.376129,0,0.376129,0,0
208,-1,-0.80427,153.818,-0.0105913,-45.4543,0.274063,0.2832,31,-0.431923,142.858,0.0345055,39.6673,141.539,1.31885,153.629,0.189562,0.525757,0.5168,0,43,0,0,0,0,0,0,0,0.396673,0,0.396673,0,0
209,2,-0.819164,153.216,0.118238,-63.1507,0.274368,0.2836,22,-0.43788,142.502,0.0210477,28.1412,141.561,0.940985,153.61,-0.394961,0.525452,0.5164,0,43,0,0,0,0,0,0,0,0.396673,0,0.396673,0,0
210,5,-0.819164,152.549,0.0393893,-69.8746,0.274826,0.284,20,-0.434902,142.466,-0.0703163,9.88421,141.609,0.856519,153.583,-1.03439,0.524765,0.516,0,43,0,0,0,0,0,0,0,0.396673,0,0.396673,0,0
211,6,-0.842994,152.298,-0.264219,-68.5108,0.275208,0.2844,23,-0.425965,142.603,-0.028935,-2.27897,141.62,0.983241,153.56,-1.26181,0.524612,0.5156,0,43,0,0,0,0,0,0,0,0,0,0,0,0
212,6,-0.840015,152.277,-0.618737,-57.4617,0.275589,0.2848,22,-0.425965,142.593,0.1362,-5.14693,141.652,0.941091,153.537,-1.26032,0.524155,0.5152,0,43,0,0,0,0,0,0,0,0,0,0,0,0
213,2,-0.848952,153.116,-0.77843,-33.7185,0.276047,0.2852,19,-0.428944,142.509,0.207672,-4.71665,141.695,0.814266,153.51,-0.393211,0.523544,0.5148,0,43,0,0,0,0,0,0,0,0,0,0,0,0
214,-7,-0.837037,154.726,-0.654387,7.16702,0.276276,0.2856,18,-0.425965,142.494,0.161087,-4.56752,141.722,0.771899,153.496,1.23063,0.523163,0.5144,0,43,0,0,0,0,0,0,0,0,0,0,0,0
215,-16,-0.857888,156.052,-0.466672,58.335,0.276733,0.286,14,-0.422986,142.361,0.138452,-4.93846,141.759,0.601857,153.468,2.5836,0.522629,0.514,0,44,0,0,0,0,0,0,0,0,0,0,0,0
216,-20,-0.825121,156.567,-0.243013,95.8386,0.277191,0.2864,3,-0.422986,141.905,0.15185,-8.7146,141.775,0.129813,153.441,3.12583,0.5224,0.5136,0,44,0,0,0,0,0,0,0,0,0,0,0,0
217,-18,-0.845973,156.274,0.0754521,99.3309,0.277573,0.2868,-5,-0.422986,141.574,0.13644,-17.179,141.791,-0.217423,153.418,2.85568,0.522171,0.5132,0,44,0,0,0,0,0,0,0,0,0,0,0,0
218,-13,-0.866824,155.545,-0.0137657,68.5881,0.277954,0.2872,-3,-0.425965,141.709,0.0732272,-22.6524,141.84,-0.130297,153.395,2.14968,0.521484,0.5128,0,44,0,0,0,0,0,0,0,0,0,0,0,0
219,-6,-0.881718,154.434,-0.567859,18.1417,0.278336,0.2876,5,-0.422986,142.083,0.00733143,-16.6965,141.866,0.21611,153.372,1.06166,0.521103,0.5124,0,44,0,0,0,0,0,0,0,0,0,0,0,0
220,-1,-0.872782,153.537,-0.923783,-33.462,0.278717,0.288,11,-0.422986,142.362,-0.00182278,-1.923,141.888,0.473833,153.349,0.187467,0.520798,0.512,0,44,0,0,0,0,0,0,0,0,0,0,0,0
221,-3,-0.875761,153.87,-0.821322,-63.0443,0.279175,0.2884,9,-0.425965,142.308,-0.00511221,10.6035,141.92,0.388189,153.322,0.548141,0.52034,0.5116,0,44,0,0,0,0,0,0,0,0,0,0,0,0
222,-12,-0.854909,155.281,-0.397121,-50.3163,0.279785,0.2888,7,-0.420008,142.271,-0.00510053,13.8211,141.968,0.30234,153.285,1.99576,0.519653,0.5112,0,44,0,0,0,0,0,0,0,0,0,0,0,0
223,-19,-0.834058,156.245,0.285638,-3.78776,0.28009,0.2892,11,-0.417029,142.474,0.0763805,11.9242,142.001,0.473886,153.267,2.97886,0.519196,0.5108,0,44,0,0,0,0,0,0,0,0,0,0,0,0
224,-18,-0.857888,156.076,0.750514,37.7559,0.280624,0.2896,16,-0.420008,142.715,0.149457,12.0249,142.027,0.687197,153.234,2.8417,0.518814,0.5104,0,44,0,0,0,0,0,0,0,0,0,0,0,0
225,-20,-0.869803,156.329,0.479214,50.6222,0.280853,0.29,20,-0.417029,142.922,0.139258,14.8167,142.065,0.856984,153.221,3.10809,0.51828,0.51,0,44,0,0,0,0,0,0,0,0,0,0,0,0
226,-25,-0.881718,156.929,-0.162778,48.5679,0.281464,0.2904,26,-0.417029,143.207,0.117493,18.2942,142.097,1.11021,153.184,3.74492,0.517822,0.5096,0,44,0,0,0,0,0,0,0,0,0,0,0,0
227,-24,-0.890655,156.784,-0.684277,43.4091,0.281769,0.2908,30,-0.411071,143.397,0.136888,21.298,142.119,1.27809,153.166,3.61837,0.517517,0.5092,0,44,0,0,0,0,0,0,0,0,0,0,0,0
228,-13,-0.90257,155.281,-0.995259,21.5537,0.282074,0.2912,27,-0.41405,143.292,0.168041,20.5544,142.14,1.15231,153.147,2.1341,0.517212,0.5088,0,45,0,0,0,0,0,0,0,0,0,0,0,0
229,-8,-0.911506,154.485,-1.13547,-19.8155,0.282684,0.2916,21,-0.41405,143.088,0.135568,13.1951,142.188,0.899436,153.111,1.37443,0.516525,0.5084,0,45,0,0,0,0,0,0,0,0,0,0,0,0
230,-11,-0.911506,154.933,-1.08732,-49.3614,0.282913,0.292,24,-0.41405,143.236,0.0655625,4.1356,142.21,1.02615,153.097,1.83586,0.51622,0.508,0,45,0,0,0,0,0,0,0,0,0,0,0,0
231,-12,-0.917464,155.062,-0.874359,-46.7235,0.283218,0.2924,31,-0.41405,143.567,0.0189739,2.12558,142.247,1.32017,153.079,1.98348,0.515686,0.5076,0,45,0,0,0,0,0,0,0,0,0,0,0,0
232,-5,-0.929379,153.935,-0.710795,-35.8398,0.283676,0.2928,29,-0.41405,143.521,-0.00537753,5.87743,142.285,1.23648,153.051,0.884423,0.515152,0.5072,0,45,0,0,0,0,0,0,0,0,0,0,0,0
233,5,-0.914485,152.026,-0.551074,-48.7972,0.283981,0.2932,20,-0.408093,143.126,0.0261954,4.79069,142.269,0.857192,153.033,-1.007,0.515381,0.5068,0,45,0,0,0,0,0,0,0,0,0,0,0,0
234,8,-0.917464,151.306,-0.235522,-79.1282,0.284515,0.2936,11,-0.411071,142.829,0.0924904,-4.59077,142.355,0.474051,153.001,-1.69431,0.51416,0.5064,0,45,0,0,0,0,0,0,0,0,0,0,0,0
235,-1,-0.917464,153.162,0.0186847,-80.3685,0.284897,0.294,10,-0.411071,142.791,0.0950364,-14.1393,142.36,0.431226,152.978,0.184754,0.514084,0.506,0,45,0,0,0,0,0,0,0,0,0,0,0,0
236,-16,-0.917464,155.487,0.0985607,-23.4348,0.285507,0.2944,13,-0.41405,142.919,0.0303857,-15.9044,142.36,0.55956,152.941,2.54614,0.514084,0.5056,0,45,0,0,0,0,0,0,0,0,0,0,0,0
237,-22,-0.947251,156.257,-0.095392,55.322,0.285965,0.2948,13,-0.420008,142.973,-0.0846464,-10.5059,142.414,0.559591,152.914,3.34307,0.513321,0.5052,0,45,0,0,0,0,0,0,0,0,0,0,0,0
238,-18,-0.941294,155.696,-0.510345,95.1302,0.286499,0.2952,11,-0.41405,142.904,-0.169426,-4.32398,142.43,0.474086,152.881,2.81508,0.513092,0.5048,0,46,0,0,0,0,0,0,0,0,0,0,0,0
239,-13,-0.9264,154.984,-0.564034,78.7523,0.286728,0.2956,16,-0.408093,143.144,-0.0786344,0.438151,142.456,0.687523,152.868,2.11672,0.512711,0.5044,0,45,0,0,0,0,0,0,0,0,0,0,0,0
240,-9,-0.935336,154.363,-0.253718,33.2239,0.287109,0.296,30,-0.411071,143.789,0.0802052,9.38508,142.51,1.27879,152.845,1.51823,0.511948,0.504,0,46,0,0,0,0,0,0,0,0,0,0,0,0
241,-5,-0.956188,153.69,-0.217479,-12.2084,0.287643,0.2964,38,-0.405114,144.139,0.164252,23.1857,142.526,1.61255,152.813,0.877098,0.511719,0.5036,0,46,0,0,0,0,0,0,0,0,0,0,0,0
242,-4,-0.9264,153.513,-0.284364,-42.0995,0.287796,0.2968,31,-0.405114,143.874,0.214805,29.8895,142.553,1.32074,152.803,0.709065,0.511337,0.5032,0,46,0,0,0,0,0,0,0,0,0,0,0,0
243,-2,-0.923421,153.134,0.0448857,-52.5386,0.28833,0.2972,17,-0.408093,143.331,0.197801,19.7412,142.601,0.73018,152.771,0.362222,0.510651,0.5028,0,46,0,0,0,0,0,0,0,0,0,0,0,0
244,-4,-0.935336,153.461,0.328756,-46.7522,0.288635,0.2976,15,-0.408093,143.268,0.0973883,0.72928,142.623,0.645052,152.753,0.707793,0.510345,0.5024,0,46,0,0,0,0,0,0,0,0,0,0,0,0
245,-11,-0.911506,154.541,0.377102,-22.6283,0.289093,0.298,23,-0.405114,143.65,0.0296782,-9.24462,142.666,0.984533,152.726,1.81526,0.509735,0.502,0,46,0,0,0,0,0,0,0,0,0,0,0,0
246,-17,-0.914485,155.374,0.515568,15.763,0.289398,0.2984,29,-0.408093,143.935,0.0137534,-4.23875,142.698,1.23719,152.707,2.66686,0.509277,0.5016,0,46,0,0,0,0,0,0,0,0,0,0,0,0
247,-16,-0.95023,155.203,0.31347,44.6706,0.289932,0.2988,25,-0.41405,143.804,-0.0566074,4.494,142.735,1.06902,152.675,2.52757,0.508743,0.5012,0,46,0,0,0,0,0,0,0,0,0,0,0,0
248,-13,-0.932357,154.761,-0.235049,44.8747,0.290237,0.2992,18,-0.408093,143.53,-0.130455,5.19724,142.757,0.772816,152.657,2.10377,0.508438,0.5008,0,46,0,0,0,0,0,0,0,0,0,0,0,0
249,-11,-0.938315,154.444,-0.438079,23.6252,0.290619,0.2996,14,-0.399156,143.397,-0.0256075,-1.38023,142.794,0.602516,152.634,1.81023,0.507904,0.5004,0,46,0,0,0,0,0,0,0,0,0,0,0,0
250,-12,-0.944273,154.557,-0.403678,2.01294,0.291153,0.3,11,-0.402135,143.29,0.164745,-8.07355,142.816,0.474267,152.602,1.95556,0.507599,0.5,0,46,0,0,0,0,0,0,0,0,0,0,0,0
251,-13,-0.947251,154.673,-0.420777,-7.27812,0.291611,0.3004,11,-0.405114,143.322,0.198841,-10.7708,142.848,0.474282,152.574,2.09874,0.507141,0.4996,0,47,0,0,0,0,0,0,0,0,0,0,0,0
252,-18,-0.935336,155.342,-0.31431,-2.33544,0.291992,0.3008,17,-0.402135,143.605,0.119205,-7.36108,142.875,0.730405,152.551,2.79054,0.50676,0.4992,0,47,0,0,0,0,0,0,0,0,0,0,0,0
253,-23,-0.941294,155.961,-0.0854083,14.2737,0.29245,0.3012,29,-0.399156,144.15,0.0942303,3.71689,142.912,1.23755,152.524,3.43759,0.506226,0.4988,0,47,0,0,0,0,0,0,0,0,0,0,0,0
254,-21,-0.944273,155.687,0.0120921,28.2617,0.292755,0.3016,42,-0.402135,144.703,0.0985617,20.2307,142.923,1.77949,152.505,3.18122,0.506073,0.4984,0,47,0,0.282617,0,0.282617,0,0,0,0,0,0,0,0
255,-14,-0.971082,154.713,-0.211262,20.3386,0.293213,0.302,45,-0.402135,144.848,0.0537354,33.6608,142.945,1.90354,152.478,2.23525,0.505768,0.498,0,47,0,0.282617,0,0.282617,0,0,0,0,0,0,0,0
256,-14,-0.971082,154.674,-0.62694,-3.61758,0.293823,0.3024,35,-0.399156,144.514,0.0207277,33.5478,143.025,1.48886,152.441,2.23292,0.504623,0.4976,0,47,0,0.282617,0,0.282617,0,0,0,0,0,0,0,0
257,-19,-0.968103,155.352,-0.789585,-15.046,0.2939,0.3028,25,-0.396177,144.073,0.0615635,17.9723,143.004,1.06939,152.437,2.91529,0.504929,0.4972,0,47,0,0.282617,0,0.282617,0,0,0,0,0,0,0,0
258,-20,-0.956188,155.453,-0.523514,-6.17817,0.294357,0.3032,20,-0.396177,143.894,0.121854,-2.68289,143.036,0.857976,152.409,3.04409,0.504471,0.4968,0,47,0,0.282617,0,0.282617,0,0,0,0,0,0,0,0
259,-17,-0.965124,155.03,-0.152243,2.21923,0.294739,0.3036,14,-0.399156,143.697,0.113836,-17.1789,143.095,0.602707,152.386,2.64391,0.503632,0.4964,0,47,0,0.282617,0,0.282617,0,0,0,0,0,0,0,0
260,-21,-0.971082,155.533,-0.0380552,3.45894,0.29512,0.304,11,-0.402135,143.58,0.019703,-23.1644,143.105,0.474402,152.363,3.16988,0.503479,0.496,0,47,0,0.282617,0,0.282617,0,0,0,0,0,0,0,0
261,-29,-0.956188,156.482,-0.0207488,13.3401,0.295654,0.3044,16,-0.399156,143.826,-0.0645465,-20.6339,143.138,0.68804,152.331,4.1512,0.503021,0.4956,0,47,0,0.282617,0,0.282617,0,0,0,0,0,0,0,0
262,-28,-0.938315,156.339,0.27241,29.0031,0.296036,0.3048,24,-0.402135,144.213,-0.0819143,-8.89982,143.186,1.02743,152.308,4.03065,0.502335,0.4952,0,47,0,0.290031,0,0.290031,0,0,0,0,0,0,0,0
263,-18,-0.965124,155.061,0.480368,23.514,0.296341,0.3052,30,-0.405114,144.471,-0.107024,6.94476,143.191,1.28001,152.29,2.77134,0.502258,0.4948,0,48,0,0.290031,0,0.290031,0,0,0,0,0,0,0,0
264,-9,-0.962145,153.748,0.216668,-12.0607,0.296875,0.3056,33,-0.396177,144.64,-0.0884302,18.8187,143.234,1.40577,152.258,1.49046,0.501648,0.4944,0,48,0,0.290031,0,0.290031,0,0,0,0,0,0,0,0
265,-4,-0.968103,152.93,-0.130733,-55.251,0.297256,0.306,34,-0.399156,144.725,0.0233146,23.2157,143.277,1.44766,152.235,0.694963,0.501038,0.494,0,48,0,0.290031,0,0.290031,0,0,0,0,0,0,0,0
266,-2,-0.977039,152.567,-0.359061,-80.4623,0.297638,0.3064,33,-0.405114,144.715,0.043154,20.9788,143.309,1.40592,152.212,0.35476,0.50058,0.4936,0,48,0,0.290031,0,0.290031,0,0,0,0,0,0,0,0
267,-5,-0.971082,153.038,-0.476543,-76.3751,0.298172,0.3068,31,-0.399156,144.648,-0.0203255,14.3817,143.325,1.3222,152.18,0.858192,0.500351,0.4932,0,48,0,0.290031,0,0.290031,0,0,0,0,0,0,0,0
268,-9,-0.97406,153.643,-0.396365,-46.1069,0.298553,0.3072,28,-0.396177,144.565,0.0191573,6.24473,143.368,1.19629,152.157,1.48577,0.499741,0.4928,0,48,0,0.290031,0,0.290031,0,0,0,0,0,0,0,0
269,-13,-0.97406,154.197,-0.256313,-6.13319,0.299088,0.3076,28,-0.393199,144.586,0.130527,-0.226858,143.39,1.19633,152.125,2.07169,0.499435,0.4924,0,48,0,0.290031,0,0.290031,0,0,0,0,0,0,0,0
270,-16,-0.965124,154.595,-0.0892851,26.2282,0.299393,0.308,33,-0.393199,144.839,0.201429,-1.40645,143.433,1.40618,152.106,2.48859,0.498825,0.492,0,48,0,0.290031,0,0.290031,0,0,0,0,0,0,0,0
271,-10,-0.947251,153.717,0.244086,35.6939,0.299774,0.3084,33,-0.393199,144.866,0.196398,2.21122,143.459,1.40623,152.084,1.63295,0.498444,0.4916,0,48,0,0.356939,0,0.356939,0,0,0,0,0,0,0,0
272,-3,-0.97406,152.584,0.435924,13.2259,0.300156,0.3088,34,-0.393199,144.94,0.141329,5.66723,143.492,1.44813,152.061,0.523507,0.497986,0.4912,0,48,0,0.356939,0,0.356939,0,0,0,0,0,0,0,0
273,1,-0.988954,151.855,0.0568163,-25.6578,0.300537,0.3092,21,-0.396177,144.425,0.0604133,3.27492,143.524,0.900896,152.038,-0.182428,0.497528,0.4908,0,48,0,0.356939,0,0.356939,0,0,0,0,0,0,0,0
274,-1,-0.982997,152.197,-0.455708,-49.9105,0.300842,0.3096,13,-0.387241,144.111,0.0307236,-7.14258,143.551,0.56025,152.019,0.1781,0.497147,0.4904,0,48,0,0,0,0,0,0,0,0,0,0,0,0
275,-3,-0.985975,152.505,-0.584437,-44.692,0.301453,0.31,17,-0.384262,144.308,0.130375,-15.8767,143.577,0.730984,151.983,0.522053,0.496765,0.49,0,49,0,0,0,0,0,0,0,0,0,0,0,0
276,-2,-0.982997,152.321,-0.459795,-25.2867,0.301682,0.3104,24,-0.39022,144.643,0.196379,-12.4012,143.615,1.028,151.969,0.35161,0.496231,0.4896,0,49,0,0,0,0,0,0,0,0,0,0,0,0
277,-6,-0.997891,152.953,-0.364338,-6.61555,0.302139,0.3108,25,-0.39022,144.723,0.110438,-1.25083,143.652,1.07029,151.941,1.01159,0.495697,0.4892,0,49,0,0,0,0,0,0,0,0,0,0,0,0
278,-16,-0.994912,154.399,-0.386829,19.8709,0.302444,0.3112,20,-0.387241,144.463,0.0250896,5.2668,143.604,0.858559,151.923,2.47622,0.496384,0.4888,0,49,0,0,0,0,0,0,0,0,0,0,0,0
279,-20,-0.997891,154.89,-0.371845,52.4543,0.303055,0.3116,19,-0.387241,144.512,0.0231622,3.90328,143.695,0.816175,151.886,3.00378,0.495087,0.4884,0,49,0,0,0,0,0,0,0,0,0,0,0,0
280,-14,-1.00087,154.06,-0.305396,62.4996,0.303436,0.312,21,-0.387241,144.623,0.0361539,1.94644,143.722,0.901113,151.863,2.1968,0.494705,0.488,0,49,0,0,0,0,0,0,0,0,0,0,0,0
281,-12,-1.00683,153.743,-0.295758,39.7844,0.30397,0.3124,26,-0.384262,144.84,0.0518031,3.90426,143.728,1.1126,151.831,1.91184,0.494629,0.4876,0,49,0,0,0,0,0,0,0,0,0,0,0,0
282,-19,-1.00385,154.676,-0.292148,16.1001,0.304352,0.3128,33,-0.384262,145.183,0.0843683,9.63282,143.776,1.40689,151.808,2.86798,0.493942,0.4872,0,49,0,0,0,0,0,0,0,0,0,0,0,0
283,-24,-1.01278,155.286,-0.271941,16.4992,0.304733,0.3132,36,-0.381284,145.362,0.115121,16.6705,143.829,1.53244,151.786,3.5005,0.493179,0.4868,0,49,0,0,0,0,0,0,0,0,0,0,0,0
284,-21,-1.00087,154.89,-0.210216,24.0245,0.305038,0.3136,31,-0.381284,145.147,0.136821,18.3474,143.824,1.32314,151.767,3.12296,0.493256,0.4864,0,49,0,0,0,0,0,0,0,0,0,0,0,0
285,-16,-1.00087,154.199,-0.0277679,14.7684,0.305573,0.314,20,-0.384262,144.731,0.10885,9.606,143.872,0.858834,151.735,2.46364,0.492569,0.486,0,49,0,0,0,0,0,0,0,0,0,0,0,0
286,-15,-1.00087,154.033,0.135212,-6.12092,0.30603,0.3144,9,-0.384262,144.293,0.0278464,-6.58272,143.905,0.388911,151.708,2.32544,0.492111,0.4856,0,49,0,0,0,0,0,0,0,0,0,0,0,0
287,-12,-0.991933,153.598,0.226139,-22.9018,0.306259,0.3148,7,-0.378305,144.218,0.0069379,-20.6857,143.915,0.302858,151.694,1.9042,0.491959,0.4852,0,49,0,0,0,0,0,0,0,0,0,0,0,0
288,-4,-1.02768,152.357,0.0826406,-38.9601,0.306564,0.3152,14,-0.384262,144.583,0.0365637,-22.4328,143.98,0.603273,151.675,0.681593,0.491043,0.4848,0,50,0,0,0,0,0,0,0,0,0,0,0,0
289,2,-1.04257,151.289,-0.519539,-61.8743,0.306946,0.3156,23,-0.387241,145.003,-0.0211216,-9.87467,144.017,0.986209,151.653,-0.36365,0.490509,0.4844,0,50,0,0,0,0,0,0,0,0,0,0,0,0
290,0,-1.0247,151.625,-0.948438,-75.0938,0.307404,0.316,25,-0.381284,145.104,-0.079298,6.76168,144.033,1.07082,151.625,6.73847e-06,0.49028,0.484,0,50,0,0,0,0,0,0,0,0,0,0,0,0
291,-7,-1.03066,152.744,-0.769435,-55.4288,0.308014,0.3164,24,-0.381284,145.094,-0.0218192,15.9211,144.065,1.02859,151.588,1.1558,0.489822,0.4836,0,50,0,0,0,0,0,0,0,0,0,0,0,0
292,-17,-1.03959,154.152,-0.508019,-5.56266,0.308395,0.3168,25,-0.384262,145.169,0.0278081,16.4501,144.098,1.07091,151.565,2.58664,0.489365,0.4832,0,50,0,0,0,0,0,0,0,0,0,0,0,0
293,-25,-1.04555,155.155,-0.463526,49.7575,0.308624,0.3172,27,-0.384262,145.296,0.00067583,14.0228,144.141,1.1554,151.552,3.60332,0.488754,0.4828,0,50,0,0,0,0,0,0,0,0,0,0,0,0
294,-24,-1.04853,155.013,-0.480473,81.1893,0.308929,0.3176,24,-0.384262,145.191,-0.0307643,10.7454,144.162,1.02872,151.533,3.47957,0.488449,0.4824,0,50,0,0,0,0,0,0,0,0,0,0,0,0
295,-19,-1.0664,154.342,-0.558223,72.5794,0.30954,0.318,15,-0.381284,144.835,-0.0154026,3.5414,144.189,0.646147,151.497,2.8451,0.488068,0.482,0,50,0,0,0,0,0,0,0,0,0,0,0,0
296,-18,-1.05151,154.186,-0.599953,38.4101,0.309921,0.3184,12,-0.384262,144.739,0.0151225,-6.52975,144.221,0.517807,151.474,2.71271,0.48761,0.4816,0,50,0,0,0,0,0,0,0,0,0,0,0,0
297,-17,-1.03959,154.025,-0.296237,6.2655,0.310379,0.3188,18,-0.387241,145.033,-0.0161162,-10.6699,144.259,0.774153,151.446,2.57848,0.487076,0.4812,0,50,0,0,0,0,0,0,0,0,0,0,0,0
298,-8,-1.05151,152.721,0.0864214,-20.6845,0.310837,0.3192,24,-0.387241,145.239,-0.084106,-4.86725,144.21,1.02878,151.419,1.30214,0.487762,0.4808,0,50,0,0,0,0,0,0,0,0,0,0,0,0
299,-1,-1.06938,151.57,0.0191274,-52.6234,0.311218,0.3196,28,-0.39022,145.483,-0.129138,5.20783,144.285,1.19779,151.396,0.174017,0.486694,0.4804,0,50,0,0,0,0,0,0,0,0,0,0,0,0
300,-5,-1.05747,152.199,-0.253767,-71.6172,0.311752,0.32,31,-0.387241,145.652,-0.13279,13.7643,144.328,1.32409,151.364,0.834893,0.486084,0.48,0,50,0,0,0,0,0,0,0,0,0,0,0,0
301,-14,-1.05747,153.501,-0.257571,-50.6662,0.31221,0.3204,31,-0.384262,145.652,-0.0584233,17.4929,144.328,1.32409,151.336,2.16466,0.486084,0.4796,0,51,0,0,0,0,0,0,0,0,0,0,0,0
302,-15,-1.07534,153.619,-0.229693,-5.86902,0.312515,0.3208,27,-0.381284,145.532,0.0680196,14.6424,144.377,1.15577,151.318,2.30072,0.485397,0.4792,0,51,0,0,0,0,0,0,0,0,0,0,0,0
303,-10,-1.07236,152.899,-0.376518,19.7012,0.312744,0.3212,27,-0.378305,145.575,0.181823,8.18885,144.419,1.15584,151.304,1.59495,0.484787,0.4788,0,51,0,0,0,0,0,0,0,0,0,0,0,0
304,-8,-1.0664,152.568,-0.375729,13.8716,0.313278,0.3216,29,-0.372347,145.67,0.279696,3.72273,144.43,1.24016,151.272,1.29619,0.484634,0.4784,0,51,0,0,0,0,0,0,0,0,0,0,0,0
305,-11,-1.0664,152.996,-0.173999,1.32743,0.313507,0.322,32,-0.378305,145.834,0.304663,3.53911,144.468,1.36636,151.258,1.7376,0.4841,0.478,0,51,0,0,0,0,0,0,0,0,0,0,0,0
306,-19,-1.09023,154.061,-0.163635,6.45907,0.313889,0.3224,38,-0.372347,146.123,0.232794,7.28294,144.505,1.61756,151.235,2.82615,0.483566,0.4776,0,51,0,0,0,0,0,0,0,0,0,0,0,0
307,-27,-1.07534,155.022,-0.334853,30.4637,0.314346,0.3228,47,-0.372347,146.524,0.180271,14.5321,144.532,1.9915,151.208,3.81409,0.483185,0.4772,0,51,0,0,0,0,0,0,0,0,0,0,0,0
308,-28,-1.0664,155.11,-0.21491,52.8095,0.314804,0.3232,53,-0.375326,146.809,0.129964,22.8403,144.57,2.23904,151.18,3.92969,0.482651,0.4768,0,51,0,0,0,0,0,0,0,0,0,0,0,0
