Time,Length,Pressure,Force
8,183.20,0.037,0.00
30,183.20,0.036,0.00
49,183.10,0.042,0.00
70,183.10,0.043,0.00
90,183.00,0.041,0.00
108,182.90,0.036,0.00
120,182.90,0.036,0.00
142,182.80,0.041,0.00
169,182.70,0.043,0.00
189,182.70,0.042,0.00
206,182.60,0.036,0.00
230,182.50,0.036,0.00
251,182.40,0.041,0.00
266,182.30,0.043,0.00
282,182.20,0.041,0.00
307,182.10,0.038,0.00
322,182.00,0.037,0.00
345,181.90,0.041,0.00
370,181.80,0.043,0.00
386,181.70,0.042,0.00
406,181.60,0.038,0.00
429,181.40,0.04,0.00
444,181.30,0.041,0.00
465,181.20,0.041,0.00
489,181.10,0.041,0.00
506,181.00,0.04,0.00
521,180.90,0.038,0.00
536,180.80,0.04,0.00
567,180.70,0.041,0.00
583,180.50,0.041,0.00
603,180.40,0.04,0.00
623,180.30,0.038,0.00
640,180.10,0.04,0.00
663,180.00,0.041,0.00
688,179.90,0.041,0.00
707,179.70,0.04,0.00
729,179.60,0.038,0.00
745,179.50,0.04,0.00
767,179.40,0.04,0.00
787,179.30,0.041,0.00
807,179.20,0.04,0.00
828,179.10,0.04,0.00
839,179.00,0.04,0.00
854,178.90,0.042,0.00
890,178.70,0.042,0.00
903,178.60,0.041,0.00
925,178.40,0.041,0.00
943,178.30,0.041,0.00
967,178.20,0.042,0.00
987,178.10,0.042,0.00
1007,178.00,0.041,0.00
1029,177.90,0.04,0.00
1047,177.80,0.04,0.00
1069,177.70,0.041,0.00
1086,177.60,0.042,0.00
1106,177.50,0.041,0.00
1127,177.40,0.04,0.00
1148,177.40,0.04,0.00
1168,177.30,0.041,0.00
1183,177.20,0.041,0.00
1208,177.10,0.04,0.00
1221,177.00,0.04,0.00
1241,176.90,0.04,0.00
1263,176.80,0.041,0.00
1284,176.70,0.041,0.00
1300,176.60,0.04,0.00
1326,176.50,0.04,0.00
1347,176.40,0.04,0.00
1364,176.40,0.041,0.00
1388,176.30,0.041,0.00
1396,176.20,0.041,0.00
1412,176.10,0.04,0.00
1447,176.00,0.04,0.00
1467,175.90,0.041,0.00
1481,175.90,0.042,0.00
1506,175.80,0.041,0.00
1528,175.70,0.04,0.00
1540,175.70,0.04,0.00
1564,175.60,0.041,0.00
1586,175.50,0.041,0.00
1600,175.50,0.041,0.00
1627,175.40,0.04,0.00
1647,175.30,0.04,0.00
1666,175.20,0.041,0.00
1683,175.20,0.042,0.00
1699,175.10,0.041,0.00
1722,175.00,0.041,0.00
1746,175.00,0.04,0.00
1762,174.90,0.041,0.00
1786,174.80,0.041,0.00
1806,174.80,0.041,0.00
1826,174.70,0.04,0.00
1847,174.60,0.04,0.00
1868,174.60,0.041,0.00
1885,174.50,0.041,0.00
1906,174.40,0.041,0.00
1924,174.40,0.04,0.00
1944,174.30,0.04,0.00
1967,174.20,0.04,0.00
1987,174.20,0.042,0.00
2004,174.10,0.041,0.00
2023,174.10,0.04,0.00
2036,174.00,0.04,0.00
2063,173.90,0.04,0.00
2083,173.90,0.041,0.00
2107,173.80,0.041,0.00
2124,173.80,0.04,0.00
2146,173.70,0.038,0.00
2163,173.60,0.04,0.00
2183,173.60,0.041,0.00
2203,173.50,0.041,0.00
2223,173.50,0.041,0.00
2241,173.40,0.04,0.00
2266,173.40,0.04,0.00
2286,173.30,0.041,0.00
2304,173.20,0.041,0.00
2322,173.20,0.041,0.00
2344,173.10,0.04,0.00
2364,173.00,0.04,0.00
2379,173.00,0.041,0.00
2404,172.90,0.041,0.00
2424,172.90,0.041,0.00
2446,172.80,0.04,0.00
2464,172.70,0.04,0.00
2477,172.70,0.041,0.00
2492,172.60,0.042,0.00
2524,172.60,0.041,0.00
2540,172.50,0.041,0.00
2558,172.50,0.04,0.00
2586,172.40,0.041,0.00
2606,172.30,0.042,0.00
2626,172.30,0.041,0.00
2640,172.20,0.04,0.00
2661,172.20,0.04,0.00
2681,172.10,0.041,0.00
2697,172.10,0.042,0.00
2716,172.00,0.042,0.00
2742,171.90,0.041,0.00
2758,171.90,0.041,0.00
2786,171.80,0.041,0.00
2802,171.80,0.042,0.00
2823,171.70,0.042,0.00
2842,171.70,0.041,0.00
2861,171.60,0.041,0.00
2882,171.60,0.041,0.00
2905,171.50,0.042,0.00
2923,171.50,0.041,0.00
2945,171.40,0.04,0.00
2962,171.40,0.04,0.00
2978,171.30,0.041,0.00
2997,171.30,0.041,0.00
3022,171.20,0.042,0.00
3043,171.20,0.041,0.00
3062,171.10,0.04,0.00
3078,171.00,0.041,0.00
3102,171.00,0.041,0.00
3124,170.90,0.041,0.00
3142,170.90,0.041,0.00
3158,170.80,0.04,0.00
3183,170.80,0.04,0.00
3204,170.70,0.041,0.00
3223,170.60,0.041,0.00
3245,170.60,0.041,0.00
3261,170.50,0.041,0.00
3277,170.50,0.041,0.00
3302,170.40,0.041,0.00
3323,170.40,0.041,0.00
3343,170.30,0.041,0.00
3359,170.30,0.04,0.00
3374,170.20,0.04,0.00
3390,170.20,0.041,0.00
3422,170.10,0.042,0.00
3438,170.10,0.041,0.00
3453,170.00,0.04,0.00
3469,169.90,0.04,0.00
3501,169.90,0.041,0.00
3523,169.80,0.041,0.00
3542,169.80,0.041,0.00
3561,169.80,0.04,0.00
3580,169.70,0.04,0.00
3597,169.60,0.041,0.00
3622,169.60,0.041,0.00
3640,169.50,0.041,0.00
3663,169.50,0.04,0.00
3682,169.40,0.04,0.00
3704,169.40,0.041,0.00
3721,169.30,0.042,0.00
3741,169.30,0.041,0.00
3759,169.20,0.041,0.00
3781,169.20,0.04,0.00
3800,169.10,0.042,0.00
3821,169.10,0.042,0.00
3842,169.00,0.041,0.00
3863,169.00,0.038,0.00
3879,168.90,0.037,0.00
3904,168.90,0.042,0.00
3921,168.80,0.043,0.00
3934,168.80,0.042,0.00
3958,168.70,0.038,0.00
3981,168.60,0.038,0.00
3999,168.60,0.042,0.00
4022,168.50,0.043,0.00
4043,168.50,0.042,0.00
4064,168.40,0.038,0.00
4081,168.40,0.037,0.00
4098,168.30,0.041,0.00
4122,168.30,0.043,0.00
4138,168.20,0.043,0.00
4162,168.20,0.038,0.00
4182,168.10,0.037,0.00
4201,168.10,0.041,0.00
4221,168.00,0.043,0.00
4240,168.00,0.042,0.00
4256,167.90,0.038,0.00
4281,167.90,0.037,0.00
4302,167.80,0.042,0.00
4322,167.80,0.043,0.00
4342,167.70,0.043,0.00
4362,167.70,0.038,0.00
4378,167.60,0.036,0.00
4396,167.60,0.041,0.00
4420,167.50,0.043,0.00
4436,167.50,0.043,0.00
4460,167.40,0.038,0.00
4476,167.40,0.036,0.00
4502,167.30,0.041,0.00
4519,167.30,0.043,0.00
4541,167.20,0.043,0.00
4560,167.20,0.038,0.00
4579,167.10,0.037,0.00
4598,167.10,0.04,0.00
4620,167.00,0.043,0.00
4640,167.00,0.043,0.00
4661,166.90,0.038,0.00
4680,166.90,0.037,0.00
4702,166.80,0.04,0.00
4719,166.80,0.042,0.00
4736,166.70,0.043,0.00
4760,166.70,0.04,0.00
4782,166.60,0.037,0.00
4801,166.60,0.04,0.00
4821,166.50,0.043,0.00
4842,166.50,0.043,0.00
4861,166.40,0.038,0.00
4878,166.40,0.037,0.00
4896,166.30,0.038,0.00
4919,166.30,0.043,0.00
4940,166.20,0.044,0.00
4961,166.20,0.041,0.00
4979,166.10,0.038,0.00
5001,166.10,0.038,0.00
5020,166.00,0.043,0.00
5039,166.00,0.044,0.00
5060,165.90,0.041,0.00
5077,165.90,0.038,0.00
5099,165.80,0.038,0.00
5116,165.80,0.042,0.00
5135,165.70,0.043,0.00
5155,165.70,0.042,0.00
5177,165.70,0.038,0.00
5197,165.60,0.038,0.00
5217,165.50,0.042,0.00
5239,165.50,0.044,0.00
5253,165.40,0.041,0.00
5279,165.40,0.037,0.00
5294,165.30,0.037,0.00
5322,165.30,0.042,0.00
5337,165.30,0.044,0.00
5356,165.20,0.042,0.00
5378,165.20,0.038,0.00
5398,165.10,0.037,0.00
5419,165.00,0.042,0.00
5440,165.00,0.043,0.00
5461,164.90,0.042,0.00
5479,164.90,0.037,0.00
5501,164.90,0.037,0.00
5517,164.80,0.041,0.00
5537,164.80,0.043,0.00
5558,164.70,0.042,0.00
5575,164.60,0.037,0.00
5596,164.60,0.037,0.00
5618,164.50,0.041,0.00
5637,164.50,0.043,0.00
5653,164.50,0.042,0.00
5681,164.40,0.038,0.00
5699,164.40,0.037,0.00
5718,164.30,0.041,0.00
5735,164.20,0.043,0.00
5759,164.20,0.043,0.00
5781,164.20,0.038,0.00
5799,164.10,0.037,0.00
5817,164.10,0.041,0.00
5834,164.00,0.043,0.00
5854,164.00,0.043,0.00
5875,163.90,0.038,0.00
5891,163.90,0.037,0.00
5918,163.80,0.04,0.00
5938,163.80,0.043,0.00
5950,163.70,0.043,0.00
5979,163.70,0.038,0.00
5997,163.60,0.036,0.00
6011,163.60,0.038,0.00
6037,163.50,0.043,0.00
6058,163.50,0.043,0.00
6079,163.40,0.038,0.00
6099,163.40,0.037,0.00
6118,163.30,0.04,0.00
6133,163.30,0.043,0.00
6150,163.20,0.043,0.00
6163,163.20,0.04,0.00
6194,163.10,0.037,0.00
6210,163.10,0.04,0.00
6238,163.00,0.043,0.00
6257,163.00,0.044,0.00
6272,162.90,0.041,0.00
6290,162.80,0.037,0.00
6312,162.80,0.04,0.00
6336,162.80,0.043,0.00
6353,162.70,0.044,0.00
6378,162.70,0.042,0.00
6395,162.60,0.037,0.00
6417,162.50,0.038,0.00
6439,162.50,0.043,0.00
6453,162.40,0.044,0.00
6478,162.40,0.04,0.00
6496,162.30,0.037,0.00
6517,162.30,0.037,0.00
6538,162.20,0.043,0.00
6558,162.20,0.043,0.00
6579,162.10,0.042,0.00
6598,162.10,0.037,0.00
6618,162.00,0.038,0.00
6634,161.90,0.042,0.00
6656,161.90,0.043,0.00
6673,161.80,0.042,0.00
6697,161.80,0.038,0.00
6712,161.80,0.037,0.00
6737,161.70,0.041,0.00
6758,161.60,0.043,0.00
6770,161.60,0.042,0.00
6793,161.50,0.038,0.00
6816,161.50,0.037,0.00
6825,161.40,0.041,0.00
6857,161.30,0.043,0.00
6878,161.30,0.042,0.00
6897,161.20,0.038,0.00
6917,161.20,0.037,0.00
6935,161.20,0.041,0.00
6955,161.10,0.043,0.00
6976,161.00,0.043,0.00
6990,161.00,0.038,0.00
7016,160.90,0.036,0.00
7031,160.90,0.04,0.00
7058,160.80,0.043,0.00
7071,160.80,0.042,0.00
7091,160.70,0.038,0.00
7116,160.60,0.036,0.00
7135,160.60,0.041,0.00
7151,160.50,0.043,0.00
7166,160.50,0.043,0.00
7197,160.40,0.038,0.00
7216,160.40,0.037,0.00
7231,160.30,0.041,0.00
7251,160.20,0.042,0.00
7275,160.20,0.043,0.00
7292,160.10,0.038,0.00
7316,160.00,0.036,0.00
7337,160.00,0.04,0.00
7352,160.00,0.043,0.00
7368,159.90,0.043,0.00
7384,159.80,0.04,0.00
7415,159.80,0.037,0.00
7432,159.70,0.04,0.00
7449,159.60,0.043,0.00
7472,159.60,0.044,0.00
7496,159.50,0.041,0.00
7512,159.50,0.037,0.00
7528,159.40,0.038,0.00
7557,159.40,0.043,0.00
7577,159.30,0.043,0.00
7594,159.30,0.041,0.00
7613,159.20,0.037,0.00
7631,159.10,0.038,0.00
7656,159.00,0.042,0.00
7672,159.00,0.043,0.00
7697,158.90,0.04,0.00
7712,158.90,0.037,0.00
7728,158.80,0.038,0.00
7749,158.80,0.042,0.00
7774,158.70,0.043,0.00
7795,158.60,0.041,0.00
7815,158.50,0.037,0.00
7831,158.50,0.037,0.00
7855,158.40,0.042,0.00
7871,158.30,0.043,0.00
7893,158.30,0.042,0.00
7911,158.20,0.037,0.00
7927,158.20,0.037,0.00
7943,158.10,0.042,0.00
7976,158.10,0.043,0.00
7990,158.00,0.042,0.00
8005,157.90,0.037,0.00
8021,157.80,0.037,0.00
8052,157.80,0.042,0.00
8073,157.70,0.043,0.00
8092,157.70,0.042,0.00
8115,157.60,0.038,0.00
8130,157.50,0.037,0.00
8154,157.50,0.042,0.00
8174,157.40,0.043,0.00
8188,157.30,0.042,0.00
8208,157.20,0.038,0.00
8231,157.20,0.037,0.00
8253,157.10,0.041,0.00
8274,157.10,0.043,0.00
8295,157.00,0.042,0.00
8315,156.90,0.038,0.00
8336,156.80,0.037,0.00
8350,156.70,0.041,0.00
8369,156.70,0.043,0.00
8392,156.60,0.043,0.00
8411,156.50,0.04,0.00
8433,156.50,0.037,0.00
8443,156.40,0.04,0.00
8474,156.40,0.043,0.00
8493,156.30,0.043,0.00
8514,156.20,0.038,0.00
8532,156.20,0.037,0.00
8552,156.10,0.041,0.00
8572,156.10,0.043,0.00
8591,156.00,0.043,0.00
8613,156.00,0.038,0.00
8632,156.00,0.037,0.00
8654,155.90,0.04,0.00
8669,155.90,0.043,0.00
8692,155.90,0.043,0.00
8707,155.80,0.04,0.00
8733,155.80,0.037,0.00
8754,155.80,0.04,0.00
8774,155.80,0.042,0.00
8792,155.70,0.043,0.00
8814,155.70,0.04,0.00
8835,155.70,0.036,0.00
8851,155.70,0.038,0.00
8872,155.60,0.043,0.00
8892,155.60,0.043,0.00
8913,155.60,0.04,0.00
8927,155.60,0.037,0.00
8952,155.50,0.037,0.00
8973,155.50,0.042,0.00
8990,155.50,0.043,0.00
9011,155.50,0.04,0.00
9032,155.40,0.037,0.00
9047,155.40,0.037,0.00
9069,155.40,0.042,0.00
9092,155.40,0.043,0.00
9110,155.30,0.041,0.00
9134,155.30,0.037,0.00
9150,155.30,0.037,0.00
9171,155.30,0.041,0.00
9190,155.20,0.043,0.00
9210,155.20,0.041,0.00
9232,155.20,0.037,0.00
9253,155.20,0.037,0.00
9273,155.20,0.042,0.00
9289,155.10,0.043,0.00
9307,155.10,0.042,0.00
9331,155.10,0.037,0.00
9352,155.10,0.037,0.00
9370,155.00,0.042,0.00
9392,155.00,0.043,0.00
9412,155.00,0.042,0.00
9431,155.00,0.037,0.00
9440,155.00,0.037,0.00
9461,154.90,0.041,0.00
9491,154.90,0.043,0.00
9504,154.90,0.042,0.00
9519,154.90,0.037,0.00
9551,154.80,0.037,0.00
9566,154.80,0.041,0.00
9592,154.80,0.043,0.00
9613,154.80,0.042,0.00
9630,154.80,0.038,0.00
9650,154.70,0.037,0.00
9664,154.70,0.041,0.00
9678,154.70,0.043,0.00
9709,154.70,0.043,0.00
9725,154.60,0.038,0.00
9740,154.60,0.037,0.00
9773,154.60,0.041,0.00
9788,154.60,0.043,0.00
9809,154.60,0.043,0.00
9831,154.50,0.038,0.00
9851,154.50,0.037,0.00
9871,154.50,0.04,0.00
9889,154.50,0.043,0.00
9899,154.50,0.043,0.00
9931,154.40,0.038,0.00
9947,154.30,0.037,0.00
9964,154.30,0.04,0.00
9980,154.30,0.043,0.00
10010,154.30,0.043,0.00
10029,154.30,0.038,0.00
10051,154.30,0.037,0.00
10067,154.30,0.038,0.00
10085,154.30,0.042,0.00
10099,154.30,0.043,0.00
10129,154.30,0.04,0.00
10145,154.20,0.037,0.00
10161,154.20,0.038,0.00
10176,154.20,0.043,0.00
10208,154.20,0.044,0.00
10232,154.20,0.04,0.00
10248,154.20,0.037,0.00
10264,154.20,0.038,0.00
10288,154.20,0.043,0.00
10298,154.20,0.044,0.00
10327,154.20,0.041,0.00
10343,154.20,0.037,0.00
10358,154.20,0.038,0.00
10391,154.20,0.042,0.00
10411,154.20,0.043,0.00
10421,154.20,0.042,0.00
10449,154.20,0.037,0.00
10470,154.20,0.037,0.00
10486,154.20,0.042,0.00
10510,154.20,0.044,0.00
10529,154.20,0.042,0.00
10546,154.20,0.037,0.00
10557,154.20,0.037,0.00
10589,154.20,0.042,0.00
10605,154.20,0.043,0.00
10629,154.20,0.042,0.00
10637,154.20,0.038,0.00
10670,154.20,0.037,0.00
10685,154.20,0.041,0.00
10709,154.20,0.043,0.00
10725,154.20,0.042,0.00
10743,154.20,0.038,0.00
10757,154.20,0.037,0.00
10789,154.20,0.042,0.00
10804,154.20,0.043,0.00
10821,154.20,0.043,0.00
10851,154.20,0.038,0.00
10867,154.20,0.037,0.00
10884,154.20,0.042,0.00
10906,154.20,0.043,0.00
10928,154.20,0.043,0.00
10947,154.20,0.04,0.00
10963,154.20,0.037,0.00
10990,154.20,0.041,0.00
11010,154.20,0.043,0.00
11027,154.20,0.043,0.00
11043,154.20,0.038,0.00
11058,154.20,0.036,0.00
11074,154.20,0.041,0.00
11106,154.20,0.043,0.00
11123,154.20,0.043,0.00
11147,154.20,0.038,0.00
11163,154.20,0.036,0.00
11179,154.20,0.04,0.00
11195,154.20,0.043,0.00
11226,154.20,0.043,0.00
11244,154.20,0.038,0.00
11258,154.20,0.037,0.00
11289,154.20,0.041,0.00
11305,154.20,0.043,0.00
11329,154.20,0.043,0.00
11345,154.20,0.04,0.00
11369,154.20,0.037,0.00
11385,154.20,0.04,0.00
11401,154.20,0.043,0.00
11418,154.20,0.043,0.00
11449,154.20,0.04,0.00
11464,154.20,0.037,0.00
11480,154.20,0.038,0.00
11509,154.20,0.042,0.00
11512,154.20,0.043,0.00
11547,154.10,0.04,0.00
11560,154.10,0.037,0.00
11584,154.10,0.038,0.00
11609,154.10,0.042,0.00
11625,154.10,0.043,0.00
11644,154.10,0.04,0.00
11656,154.10,0.037,0.00
11674,154.10,0.038,0.00
11704,154.10,0.043,0.00
11720,154.10,0.044,0.00
11740,154.10,0.041,0.00
11768,154.10,0.037,0.00
11784,154.10,0.037,0.00
11808,154.10,0.043,0.00
11827,154.10,0.044,0.00
11840,154.10,0.042,0.00
11858,154.10,0.038,0.00
11878,154.10,0.038,0.00
11903,154.10,0.043,0.00
11928,154.10,0.044,0.00
11948,154.10,0.043,0.00
11968,154.10,0.038,0.00
11988,154.10,0.038,0.00
12006,154.10,0.043,0.00
12025,154.10,0.044,0.00
12043,154.10,0.042,0.00
12065,154.10,0.038,0.00
12079,154.10,0.037,0.00
12095,154.10,0.042,0.00
12126,154.10,0.043,0.00
12145,154.10,0.042,0.00
12160,154.10,0.038,0.00
12176,154.10,0.037,0.00
12206,154.10,0.042,0.00
12226,154.10,0.043,0.00
12248,154.10,0.043,0.00
12266,154.10,0.038,0.00
12280,154.10,0.037,0.00
12295,154.10,0.042,0.00
12312,154.10,0.043,0.00
12345,154.10,0.043,0.00
12366,154.10,0.038,0.00
12375,154.10,0.037,0.00
12407,154.10,0.041,0.00
12427,154.10,0.043,0.00
12446,154.10,0.043,0.00
12462,154.10,0.04,0.00
12478,154.10,0.037,0.00
12505,154.10,0.041,0.00
12514,154.10,0.043,0.00
12543,154.10,0.043,0.00
12564,154.10,0.04,0.00
12587,154.10,0.037,0.00
12609,154.10,0.041,0.00
12624,154.10,0.043,0.00
12642,154.10,0.043,0.00
12663,154.10,0.04,0.00
12686,154.10,0.037,0.00
12706,154.10,0.04,0.00
12725,154.10,0.043,0.00
12736,154.10,0.043,0.00
12767,154.10,0.038,0.00
12783,154.10,0.037,0.00
12799,154.10,0.038,0.00
12823,154.10,0.043,0.00
12839,154.10,0.043,0.00
12863,154.10,0.04,0.00
12879,154.10,0.037,0.00
12895,154.10,0.038,0.00
12927,154.10,0.042,0.00
12942,154.10,0.043,0.00
12960,154.10,0.04,0.00
12975,154.10,0.037,0.00
12990,154.10,0.038,0.00
13022,154.10,0.042,0.00
13046,154.10,0.043,0.00
13063,154.10,0.041,0.00
13080,154.10,0.037,0.00
13103,154.10,0.038,0.00
13120,154.10,0.042,0.00
13144,154.10,0.043,0.00
13162,154.10,0.041,0.00
13185,154.10,0.037,0.00
13207,154.10,0.037,0.00
13223,154.10,0.042,0.00
13241,154.10,0.043,0.00
13263,154.10,0.04,0.00
13282,154.10,0.036,0.00
13299,154.10,0.037,0.00
13324,154.10,0.041,0.00
13345,154.10,0.043,0.00
13365,154.10,0.041,0.00
13377,154.10,0.036,0.00
13402,154.10,0.037,0.00
13425,154.10,0.041,0.00
13444,154.10,0.043,0.00
13457,154.10,0.042,0.00
13484,154.10,0.037,0.00
13499,154.10,0.037,0.00
13521,154.10,0.042,0.00
13546,154.10,0.043,0.00
13566,154.10,0.042,0.00
13581,154.10,0.037,0.00
13598,154.10,0.037,0.00
13618,154.10,0.041,0.00
13641,154.10,0.043,0.00
13660,154.10,0.042,0.00
13682,154.10,0.038,0.00
13705,154.10,0.036,0.00
13725,154.10,0.041,0.00
13745,154.10,0.043,0.00
13761,154.10,0.042,0.00
13776,154.30,0.038,0.00
13801,155.60,0.036,0.00
13817,157.40,0.04,0.00
13832,159.50,0.044,0.00
13864,161.70,0.043,0.00
13880,164.00,0.038,0.00
13895,166.50,0.037,0.00
13919,169.00,0.041,0.00
13943,170.50,0.042,0.00
