Time,Length,Pressure,Force
9,183.50,0.044,0.00
30,183.40,0.04,0.00
48,183.40,0.037,0.00
65,183.30,0.042,0.00
90,183.20,0.044,0.00
96,183.10,0.043,0.00
128,183.10,0.04,0.00
143,183.00,0.037,0.00
170,182.90,0.04,0.00
175,182.80,0.043,0.00
207,182.70,0.043,0.00
230,182.60,0.04,0.00
247,182.50,0.037,0.00
271,182.40,0.04,0.00
287,182.30,0.043,0.00
303,182.20,0.044,0.00
328,182.10,0.041,0.00
343,182.00,0.038,0.00
358,181.90,0.04,0.00
390,181.80,0.043,0.00
406,181.70,0.043,0.00
421,181.60,0.041,0.00
445,181.40,0.04,0.00
461,181.30,0.041,0.00
488,181.20,0.042,0.00
510,181.10,0.042,0.00
518,181.00,0.041,0.00
549,180.90,0.04,0.00
565,180.80,0.041,0.00
580,180.60,0.042,0.00
612,180.50,0.042,0.00
627,180.30,0.041,0.00
643,180.20,0.04,0.00
667,180.10,0.041,0.00
688,179.90,0.042,0.00
707,179.80,0.042,0.00
723,179.70,0.041,0.00
747,179.60,0.04,0.00
763,179.50,0.041,0.00
778,179.30,0.042,0.00
794,179.20,0.042,0.00
825,179.10,0.042,0.00
841,179.00,0.041,0.00
857,178.80,0.042,0.00
889,178.70,0.043,0.00
905,178.60,0.043,0.00
929,178.40,0.042,0.00
937,178.30,0.042,0.00
968,178.20,0.041,0.00
984,178.10,0.042,0.00
999,178.00,0.043,0.00
1015,177.90,0.042,0.00
1046,177.80,0.041,0.00
1062,177.70,0.041,0.00
1083,177.60,0.042,0.00
1102,177.50,0.042,0.00
1126,177.40,0.042,0.00
1143,177.30,0.041,0.00
1163,177.20,0.042,0.00
1175,177.20,0.042,0.00
1208,177.10,0.042,0.00
1223,177.00,0.041,0.00
1238,176.90,0.041,0.00
1270,176.80,0.041,0.00
1287,176.70,0.042,0.00
1301,176.50,0.042,0.00
1325,176.40,0.042,0.00
1349,176.40,0.041,0.00
1366,176.30,0.041,0.00
1390,176.30,0.041,0.00
1398,176.20,0.042,0.00
1413,176.10,0.041,0.00
1445,176.00,0.04,0.00
1461,175.90,0.041,0.00
1476,175.80,0.042,0.00
1500,175.80,0.042,0.00
1516,175.70,0.042,0.00
1550,175.60,0.041,0.00
1564,175.60,0.041,0.00
1588,175.50,0.042,0.00
1604,175.40,0.042,0.00
1612,175.40,0.042,0.00
1644,175.30,0.041,0.00
1660,175.20,0.041,0.00
1675,175.10,0.042,0.00
1707,175.10,0.042,0.00
1723,175.00,0.041,0.00
1738,174.90,0.041,0.00
1764,174.90,0.041,0.00
1784,174.80,0.041,0.00
1795,174.80,0.042,0.00
1826,174.70,0.041,0.00
1846,174.60,0.041,0.00
1858,174.60,0.04,0.00
1874,174.50,0.041,0.00
1905,174.40,0.041,0.00
1923,174.40,0.041,0.00
1937,174.30,0.041,0.00
1964,174.30,0.041,0.00
1985,174.20,0.041,0.00
2003,174.10,0.042,0.00
2025,174.10,0.041,0.00
2041,174.00,0.041,0.00
2066,173.90,0.041,0.00
2083,173.90,0.041,0.00
2097,173.80,0.041,0.00
2115,173.70,0.042,0.00
2145,173.70,0.041,0.00
2160,173.60,0.04,0.00
2176,173.60,0.041,0.00
2208,173.50,0.042,0.00
2225,173.50,0.042,0.00
2246,173.40,0.04,0.00
2266,173.30,0.04,0.00
2287,173.30,0.041,0.00
2305,173.20,0.041,0.00
2327,173.10,0.041,0.00
2343,173.10,0.041,0.00
2359,173.00,0.04,0.00
2374,173.00,0.041,0.00
2406,172.90,0.041,0.00
2426,172.80,0.041,0.00
2447,172.80,0.04,0.00
2463,172.70,0.04,0.00
2487,172.70,0.041,0.00
2495,172.60,0.043,0.00
2511,172.60,0.044,0.00
2543,172.50,0.041,0.00
2558,172.40,0.038,0.00
2582,172.40,0.041,0.00
2605,172.30,0.043,0.00
2621,172.30,0.044,0.00
2646,172.20,0.041,0.00
2661,172.10,0.038,0.00
2685,172.10,0.041,0.00
2702,172.00,0.043,0.00
2718,172.00,0.044,0.00
2742,171.90,0.041,0.00
2766,171.80,0.037,0.00
2783,171.80,0.041,0.00
2799,171.70,0.043,0.00
2823,171.70,0.043,0.00
2839,171.70,0.041,0.00
2863,171.60,0.038,0.00
2879,171.60,0.041,0.00
2903,171.50,0.043,0.00
2919,171.50,0.043,0.00
2943,171.40,0.041,0.00
2959,171.40,0.038,0.00
2974,171.30,0.041,0.00
3006,171.20,0.043,0.00
3021,171.20,0.043,0.00
3037,171.10,0.04,0.00
3058,171.10,0.037,0.00
3085,171.00,0.04,0.00
3098,171.00,0.043,0.00
3125,170.90,0.043,0.00
3142,170.80,0.04,0.00
3165,170.80,0.038,0.00
3183,170.70,0.04,0.00
3199,170.70,0.043,0.00
3224,170.60,0.043,0.00
3245,170.60,0.041,0.00
3265,170.50,0.037,0.00
3286,170.50,0.04,0.00
3306,170.40,0.042,0.00
3321,170.40,0.043,0.00
3341,170.30,0.041,0.00
3362,170.30,0.038,0.00
3378,170.20,0.04,0.00
3393,170.10,0.042,0.00
3425,170.10,0.043,0.00
3441,170.00,0.041,0.00
3460,170.00,0.037,0.00
3481,169.90,0.038,0.00
3502,169.90,0.042,0.00
3519,169.80,0.043,0.00
3543,169.80,0.04,0.00
3563,169.70,0.037,0.00
3584,169.70,0.037,0.00
3602,169.60,0.042,0.00
3616,169.60,0.043,0.00
3632,169.50,0.04,0.00
3663,169.50,0.037,0.00
3678,169.40,0.037,0.00
3694,169.40,0.042,0.00
3712,169.30,0.044,0.00
3742,169.30,0.041,0.00
3759,169.20,0.038,0.00
3782,169.20,0.038,0.00
3798,169.10,0.042,0.00
3820,169.00,0.043,0.00
3837,169.00,0.041,0.00
3861,168.90,0.037,0.00
3884,168.90,0.037,0.00
3904,168.80,0.042,0.00
3924,168.80,0.043,0.00
3939,168.70,0.041,0.00
3964,168.70,0.037,0.00
3980,168.60,0.037,0.00
4004,168.60,0.042,0.00
4020,168.50,0.043,0.00
4044,168.50,0.041,0.00
4064,168.40,0.038,0.00
4075,168.40,0.037,0.00
4093,168.30,0.042,0.00
4107,168.30,0.043,0.00
4138,168.20,0.042,0.00
4154,168.20,0.038,0.00
4177,168.10,0.038,0.00
4202,168.10,0.041,0.00
4218,168.00,0.043,0.00
4242,168.00,0.041,0.00
4258,167.90,0.04,0.00
4282,167.90,0.04,0.00
4298,167.80,0.041,0.00
4323,167.80,0.041,0.00
4344,167.70,0.041,0.00
4360,167.70,0.04,0.00
4385,167.60,0.04,0.00
4401,167.60,0.041,0.00
4421,167.50,0.041,0.00
4441,167.50,0.041,0.00
4460,167.40,0.04,0.00
4474,167.40,0.04,0.00
4492,167.30,0.041,0.00
4521,167.30,0.041,0.00
4536,167.20,0.041,0.00
4552,167.20,0.04,0.00
4567,167.10,0.04,0.00
4599,167.10,0.041,0.00
4620,167.00,0.041,0.00
4642,167.00,0.041,0.00
4659,166.90,0.04,0.00
4672,166.90,0.04,0.00
4703,166.80,0.04,0.00
4719,166.80,0.041,0.00
4734,166.70,0.041,0.00
4760,166.70,0.04,0.00
4780,166.60,0.04,0.00
4797,166.60,0.041,0.00
4821,166.50,0.041,0.00
4842,166.50,0.041,0.00
4864,166.40,0.04,0.00
4882,166.40,0.038,0.00
4895,166.30,0.041,0.00
4910,166.30,0.042,0.00
4926,166.20,0.041,0.00
4957,166.20,0.041,0.00
4973,166.10,0.041,0.00
4988,166.10,0.042,0.00
5020,166.00,0.042,0.00
5043,166.00,0.042,0.00
5061,165.90,0.041,0.00
5075,165.90,0.041,0.00
5100,165.80,0.041,0.00
5113,165.80,0.042,0.00
5139,165.70,0.042,0.00
5162,165.70,0.041,0.00
5171,165.60,0.04,0.00
5195,165.60,0.041,0.00
5219,165.50,0.042,0.00
5235,165.50,0.043,0.00
5261,165.40,0.04,0.00
5280,165.40,0.037,0.00
5299,165.30,0.04,0.00
5315,165.30,0.043,0.00
5341,165.20,0.043,0.00
5347,165.20,0.04,0.00
5382,165.10,0.037,0.00
5398,165.10,0.04,0.00
5411,165.00,0.043,0.00
5426,165.00,0.043,0.00
5461,164.90,0.041,0.00
5482,164.90,0.037,0.00
5501,164.80,0.038,0.00
5521,164.80,0.042,0.00
5541,164.70,0.043,0.00
5554,164.70,0.04,0.00
5578,164.60,0.037,0.00
5598,164.60,0.041,0.00
5618,164.50,0.042,0.00
5641,164.50,0.043,0.00
5660,164.40,0.04,0.00
5676,164.40,0.037,0.00
5700,164.30,0.04,0.00
5718,164.30,0.042,0.00
5732,164.20,0.043,0.00
5757,164.20,0.04,0.00
5774,164.10,0.037,0.00
5789,164.10,0.038,0.00
5820,164.00,0.042,0.00
5835,164.00,0.043,0.00
5851,163.90,0.04,0.00
5867,163.90,0.037,0.00
5899,163.80,0.038,0.00
5920,163.80,0.041,0.00
5941,163.70,0.043,0.00
5958,163.70,0.041,0.00
5980,163.60,0.037,0.00
5996,163.60,0.037,0.00
6016,163.50,0.042,0.00
6028,163.50,0.043,0.00
6059,163.40,0.041,0.00
6075,163.40,0.037,0.00
6091,163.30,0.037,0.00
6120,163.30,0.041,0.00
6140,163.20,0.043,0.00
6162,163.20,0.04,0.00
6177,163.10,0.037,0.00
6194,163.10,0.038,0.00
6218,163.00,0.042,0.00
6240,163.00,0.043,0.00
6260,162.90,0.041,0.00
6275,162.90,0.038,0.00
6300,162.80,0.038,0.00
6314,162.80,0.042,0.00
6340,162.70,0.044,0.00
6358,162.70,0.041,0.00
6374,162.60,0.04,0.00
6396,162.50,0.038,0.00
6413,162.50,0.041,0.00
6440,162.40,0.043,0.00
6461,162.40,0.042,0.00
6476,162.30,0.037,0.00
6499,162.30,0.037,0.00
6518,162.20,0.042,0.00
6538,162.20,0.043,0.00
6554,162.10,0.042,0.00
6579,162.10,0.038,0.00
6599,162.00,0.037,0.00
6619,161.90,0.041,0.00
6635,161.90,0.043,0.00
6651,161.80,0.042,0.00
6675,161.80,0.038,0.00
6691,161.70,0.037,0.00
6706,161.70,0.041,0.00
6737,161.60,0.043,0.00
6753,161.60,0.042,0.00
6777,161.50,0.038,0.00
6797,161.40,0.037,0.00
6817,161.40,0.041,0.00
6834,161.30,0.043,0.00
6857,161.30,0.042,0.00
6878,161.20,0.038,0.00
6899,161.20,0.037,0.00
6917,161.10,0.041,0.00
6940,161.10,0.043,0.00
6959,161.00,0.043,0.00
6971,161.00,0.04,0.00
6989,160.90,0.037,0.00
7013,160.90,0.041,0.00
7039,160.80,0.043,0.00
7056,160.80,0.043,0.00
7076,160.70,0.04,0.00
7093,160.60,0.037,0.00
7108,160.60,0.041,0.00
7131,160.50,0.043,0.00
7156,160.50,0.043,0.00
7172,160.40,0.04,0.00
7196,160.40,0.037,0.00
7212,160.30,0.041,0.00
7238,160.20,0.043,0.00
7255,160.20,0.043,0.00
7277,160.10,0.04,0.00
7293,160.00,0.037,0.00
7310,160.00,0.041,0.00
7325,159.90,0.043,0.00
7358,159.90,0.043,0.00
7372,159.80,0.041,0.00
7388,159.70,0.038,0.00
7404,159.70,0.041,0.00
7435,159.60,0.044,0.00
7451,159.60,0.043,0.00
7476,159.50,0.041,0.00
7492,159.50,0.037,0.00
7517,159.40,0.041,0.00
7533,159.30,0.043,0.00
7557,159.30,0.043,0.00
7573,159.20,0.041,0.00
7588,159.20,0.038,0.00
7611,159.10,0.04,0.00
7636,159.00,0.043,0.00
7656,159.00,0.044,0.00
7676,158.90,0.04,0.00
7694,158.80,0.038,0.00
7717,158.80,0.041,0.00
7727,158.70,0.043,0.00
7756,158.70,0.044,0.00
7774,158.60,0.041,0.00
7795,158.60,0.038,0.00
7805,158.50,0.041,0.00
7835,158.40,0.043,0.00
7851,158.40,0.044,0.00
7876,158.30,0.041,0.00
7898,158.20,0.038,0.00
7916,158.20,0.04,0.00
7932,158.10,0.043,0.00
7940,158.10,0.044,0.00
7972,158.00,0.042,0.00
7995,157.90,0.038,0.00
8003,157.80,0.04,0.00
8034,157.70,0.043,0.00
8050,157.70,0.044,0.00
8066,157.60,0.042,0.00
8095,157.50,0.038,0.00
8114,157.50,0.04,0.00
8130,157.40,0.043,0.00
8155,157.40,0.044,0.00
8172,157.30,0.041,0.00
8195,157.20,0.038,0.00
8211,157.10,0.04,0.00
8223,157.10,0.043,0.00
8250,157.00,0.044,0.00
8274,156.90,0.041,0.00
8282,156.90,0.04,0.00
8313,156.80,0.04,0.00
8334,156.80,0.043,0.00
8356,156.70,0.044,0.00
8372,156.60,0.042,0.00
8387,156.50,0.04,0.00
8403,156.40,0.04,0.00
8434,156.40,0.042,0.00
8451,156.40,0.044,0.00
8466,156.30,0.042,0.00
8482,156.30,0.038,0.00
8506,156.20,0.04,0.00
8537,156.10,0.043,0.00
8554,156.10,0.044,0.00
8573,156.10,0.043,0.00
8587,156.00,0.04,0.00
8611,156.00,0.04,0.00
8626,156.00,0.043,0.00
8642,155.90,0.044,0.00
8675,155.90,0.042,0.00
8691,155.90,0.04,0.00
8705,155.90,0.038,0.00
8721,155.80,0.042,0.00
8752,155.80,0.044,0.00
8771,155.80,0.042,0.00
8794,155.80,0.038,0.00
8812,155.70,0.038,0.00
8835,155.70,0.042,0.00
8851,155.70,0.044,0.00
8866,155.70,0.043,0.00
8890,155.60,0.04,0.00
8900,155.60,0.038,0.00
8930,155.60,0.042,0.00
8947,155.60,0.044,0.00
8970,155.50,0.043,0.00
8994,155.50,0.04,0.00
9010,155.50,0.038,0.00
9035,155.50,0.042,0.00
9052,155.40,0.044,0.00
9066,155.40,0.043,0.00
9082,155.40,0.04,0.00
9114,155.40,0.038,0.00
9135,155.30,0.042,0.00
9145,155.30,0.044,0.00
9161,155.30,0.043,0.00
9191,155.30,0.04,0.00
9209,155.20,0.038,0.00
9226,155.20,0.042,0.00
9253,155.20,0.044,0.00
9271,155.20,0.043,0.00
9281,155.20,0.04,0.00
9312,155.10,0.038,0.00
9335,155.10,0.042,0.00
9355,155.10,0.044,0.00
9372,155.10,0.044,0.00
9392,155.00,0.04,0.00
9408,155.00,0.038,0.00
9433,155.00,0.042,0.00
9454,155.00,0.044,0.00
9474,155.00,0.044,0.00
9491,154.90,0.041,0.00
9505,154.90,0.038,0.00
9521,154.90,0.042,0.00
9552,154.90,0.044,0.00
9573,154.80,0.044,0.00
9593,154.80,0.041,0.00
9614,154.80,0.038,0.00
9634,154.80,0.042,0.00
9651,154.80,0.044,0.00
9675,154.70,0.043,0.00
9691,154.70,0.041,0.00
9712,154.70,0.038,0.00
9733,154.70,0.041,0.00
9746,154.60,0.044,0.00
9762,154.60,0.043,0.00
9793,154.60,0.041,0.00
9809,154.60,0.038,0.00
9831,154.60,0.041,0.00
9849,154.60,0.044,0.00
9865,154.60,0.044,0.00
9890,154.60,0.041,0.00
9906,154.60,0.038,0.00
9922,154.50,0.041,0.00
9954,154.50,0.044,0.00
9969,154.50,0.044,0.00
9985,154.50,0.041,0.00
10001,154.50,0.038,0.00
10016,154.50,0.04,0.00
10052,154.50,0.044,0.00
10073,154.50,0.044,0.00
10089,154.50,0.041,0.00
10110,154.50,0.038,0.00
10121,154.50,0.041,0.00
10146,154.50,0.044,0.00
10168,154.50,0.044,0.00
10188,154.50,0.042,0.00
10209,154.50,0.038,0.00
10219,154.50,0.041,0.00
10249,154.50,0.044,0.00
10272,154.50,0.044,0.00
10289,154.50,0.041,0.00
10305,154.50,0.038,0.00
10329,154.50,0.04,0.00
10339,154.50,0.043,0.00
10370,154.50,0.044,0.00
10384,154.50,0.042,0.00
10400,154.50,0.038,0.00
10431,154.50,0.041,0.00
10447,154.50,0.043,0.00
10463,154.50,0.044,0.00
10488,154.50,0.041,0.00
10511,154.50,0.038,0.00
10527,154.50,0.04,0.00
10552,154.50,0.043,0.00
10570,154.50,0.044,0.00
10589,154.50,0.042,0.00
10599,154.50,0.038,0.00
10628,154.50,0.04,0.00
10647,154.50,0.043,0.00
10663,154.50,0.044,0.00
10688,154.50,0.042,0.00
10712,154.50,0.038,0.00
10729,154.50,0.04,0.00
10751,154.40,0.043,0.00
10772,154.40,0.044,0.00
10789,154.40,0.042,0.00
10810,154.40,0.038,0.00
10821,154.40,0.038,0.00
10840,154.40,0.043,0.00
10870,154.40,0.044,0.00
10884,154.40,0.043,0.00
10910,154.40,0.038,0.00
10924,154.40,0.038,0.00
10949,154.40,0.043,0.00
10971,154.40,0.044,0.00
10989,154.40,0.042,0.00
11011,154.40,0.038,0.00
11031,154.40,0.04,0.00
11038,154.40,0.042,0.00
11069,154.40,0.044,0.00
11085,154.40,0.042,0.00
11100,154.40,0.04,0.00
11116,154.40,0.038,0.00
11148,154.40,0.043,0.00
11164,154.40,0.044,0.00
11190,154.40,0.042,0.00
11204,154.40,0.04,0.00
11228,154.40,0.038,0.00
11244,154.40,0.042,0.00
11262,154.40,0.044,0.00
11275,154.40,0.043,0.00
11307,154.40,0.04,0.00
11322,154.40,0.038,0.00
11339,154.40,0.042,0.00
11371,154.40,0.044,0.00
11390,154.40,0.043,0.00
11411,154.40,0.038,0.00
11429,154.40,0.038,0.00
11450,154.40,0.042,0.00
11466,154.40,0.043,0.00
11482,154.40,0.043,0.00
11497,154.40,0.038,0.00
11529,154.40,0.038,0.00
11545,154.40,0.042,0.00
11561,154.40,0.043,0.00
11588,154.40,0.042,0.00
11604,154.40,0.04,0.00
11627,154.40,0.038,0.00
11643,154.40,0.041,0.00
11667,154.40,0.043,0.00
11683,154.40,0.043,0.00
11698,154.40,0.04,0.00
11714,154.40,0.037,0.00
11745,154.40,0.041,0.00
11763,154.40,0.043,0.00
11781,154.40,0.043,0.00
11808,154.40,0.038,0.00
11827,154.40,0.037,0.00
11850,154.40,0.042,0.00
11868,154.40,0.043,0.00
11882,154.40,0.043,0.00
11898,154.40,0.04,0.00
11913,154.40,0.037,0.00
11946,154.40,0.041,0.00
11960,154.40,0.043,0.00
11976,154.40,0.043,0.00
12009,154.40,0.04,0.00
12029,154.40,0.037,0.00
12040,154.40,0.041,0.00
12067,154.40,0.043,0.00
12085,154.40,0.043,0.00
12105,154.40,0.04,0.00
12128,154.40,0.037,0.00
12144,154.40,0.04,0.00
12160,154.40,0.043,0.00
12186,154.40,0.043,0.00
12199,154.40,0.04,0.00
12223,154.40,0.037,0.00
12247,154.40,0.04,0.00
12268,154.40,0.043,0.00
12288,154.40,0.043,0.00
12304,154.40,0.04,0.00
12320,154.40,0.037,0.00
12336,154.40,0.041,0.00
12352,154.40,0.043,0.00
12383,154.40,0.043,0.00
12399,154.40,0.04,0.00
12414,154.30,0.037,0.00
12448,154.30,0.04,0.00
12469,154.30,0.043,0.00
12488,154.30,0.043,0.00
12503,154.30,0.041,0.00
12527,154.30,0.038,0.00
12543,154.30,0.041,0.00
12567,154.30,0.043,0.00
12583,154.30,0.043,0.00
12599,154.30,0.041,0.00
12614,154.30,0.037,0.00
12646,154.30,0.04,0.00
12661,154.30,0.043,0.00
12685,154.30,0.043,0.00
12704,154.30,0.041,0.00
12726,154.30,0.037,0.00
12742,154.30,0.038,0.00
12768,154.30,0.043,0.00
12788,154.30,0.044,0.00
12803,154.30,0.041,0.00
12828,154.30,0.037,0.00
12844,154.30,0.04,0.00
12859,154.30,0.043,0.00
12875,154.30,0.044,0.00
12907,154.30,0.041,0.00
12923,154.30,0.038,0.00
12948,154.30,0.04,0.00
12964,154.30,0.043,0.00
12981,154.30,0.044,0.00
13004,154.30,0.041,0.00
13020,154.30,0.038,0.00
13035,154.30,0.04,0.00
13067,154.30,0.043,0.00
13082,154.30,0.044,0.00
13098,154.30,0.041,0.00
13121,154.30,0.038,0.00
13146,154.30,0.038,0.00
13162,154.30,0.042,0.00
13186,154.30,0.044,0.00
13202,154.30,0.041,0.00
13226,154.30,0.038,0.00
13242,154.30,0.038,0.00
13258,154.30,0.042,0.00
13274,154.30,0.043,0.00
13289,154.30,0.042,0.00
13320,154.30,0.038,0.00
13344,154.30,0.038,0.00
13364,154.30,0.042,0.00
13385,154.30,0.044,0.00
13401,154.30,0.042,0.00
13417,154.30,0.038,0.00
13433,154.30,0.038,0.00
13464,154.30,0.043,0.00
13480,154.30,0.044,0.00
13496,154.30,0.042,0.00
13511,154.30,0.04,0.00
13542,154.30,0.038,0.00
13567,154.30,0.043,0.00
13580,154.30,0.044,0.00
